,Assets,Current Assets,Liabilities,Current Liabilities,Shareholders equity,Revenue,Earnings,Earnings available for common stockholders,EPS basic,EPS diluted,Cash from operating activities,Cash from investing activities,Cash from financing activities,Cash change during period,Cash at end of period,Price,ROE,ROA,Book value of equity per share,P/B ratio,P/E ratio,Cumulative dividends per share,Equity to assets ratio,Net margin,Asset turnover,Current ratio
102,-0.02180368183519754,-0.20820687581437303,-0.06655361814121352,-0.23179002431973572,0.020309236254826724,-0.06376185063761852,0.1306761848106286,0.1306761848106286,-0.44736842105263164,-0.47058823529411775,0.11383969414189266,-0.08300961127163842,-1.508208828040675,-1.6208188153310106,-0.4452675775000242,0.08785529715762275,-0.031735313977042656,-0.08052884615384615,0.020547945205479534,0.17708333333333348,0.05747623163353488,inf,0.04309006211180133,-0.00930232558139521,-0.02941176470588236,0.030755788553953556
101,-0.02180368183519754,-0.20820687581437303,-0.06655361814121352,-0.23179002431973572,0.020309236254826724,-0.06376185063761852,0.1306761848106286,0.1306761848106286,-0.44736842105263164,-0.47058823529411775,0.11383969414189266,-0.08300961127163842,-1.508208828040675,-1.6208188153310106,-0.4452675775000242,0.08785529715762275,-0.031735313977042656,-0.08052884615384615,0.020547945205479534,0.17708333333333348,0.05747623163353488,inf,0.04309006211180133,-0.00930232558139521,-0.02941176470588236,0.030755788553953556
100,0.018186774978664166,0.09505147017868998,0.003612521945369318,-0.009628709322884288,0.030734551581211855,-0.06376185063761852,0.1306761848106286,0.1306761848106286,-0.44736842105263164,-0.47058823529411775,0.11383969414189266,-0.08300961127163842,-1.508208828040675,-1.6208188153310106,0.49831320246814315,0.1995249406175772,-0.031735313977042656,-0.08052884615384615,0.02684563758389258,0.17708333333333348,0.05747623163353488,0.0,0.012281354670636402,-0.00930232558139521,-0.02941176470588236,0.10562007289988995
99,0.02878552109243726,-0.04196240723186828,0.016407532123363433,-0.08402692335528694,0.03916199506156737,-0.10584412850345959,0.1974745703262013,0.1974745703262013,0.23809523809523814,-0.47058823529411775,-0.01624589313505098,0.0040554434332280564,-1.4022468142186453,-0.9609232496141434,0.012996255118587818,0.1544554455445546,-0.031735313977042656,-0.08052884615384615,0.045751633986928164,0.12389380530973448,0.05747623163353488,1.0,0.010110294117646967,-0.00930232558139521,-0.02941176470588236,0.04592501725063247
98,0.003258938506395248,-0.24505043679714267,-0.02112050251941433,0.08381400126422256,0.023248721207556722,0.5986234392045142,0.0388595977348174,0.0388595977348174,0.03846153846153855,-0.47058823529411775,-0.186006450989181,0.609244334881957,-0.456579130193136,-73.72980251346499,-0.933088413124345,-0.05660377358490565,-0.031735313977042656,-0.08052884615384615,0.018749999999999822,-0.09711286089238846,0.05747623163353488,0.5,0.01983621474067343,-0.00930232558139521,-0.02941176470588236,-0.30340126081219765
97,0.06957049026595352,0.20195246071424,0.12936802338083786,-0.13098340836325417,0.022665870565899304,-0.23728122928888784,-0.30392387218045114,-0.30392387218045114,-0.2962962962962963,-0.47058823529411775,0.04261636632583654,-0.5024598325546319,-0.3293275377141396,-1.1171918391528122,1.6342512908777969,-0.021818181818181848,-0.031735313977042656,-0.08052884615384615,0.024539877300613577,-0.04069767441860472,0.05747623163353488,0.3333333333333335,-0.04389721627408982,-0.00930232558139521,-0.02941176470588236,0.3831421656319056
96,0.02789346981366858,0.05700319668948506,0.011696051946871622,0.007396480729301436,0.04192418672082132,0.1841634376488459,0.6249113924050633,0.6249113924050633,0.5789473684210527,-0.47058823529411775,-0.24405575576819516,-0.09626270042393958,-4.219977125428898,-0.4601369141653502,0.3349232277033649,0.05762081784386619,0.060669456066945626,-0.08052884615384615,0.041916167664670656,0.03333333333333344,0.05747623163353488,0.0,0.01381112355356473,0.02688860435339313,0.06060606060606055,0.04922398052343269
95,0.030790275263868905,-0.03612044846118234,0.03693136856513468,0.08610052810914715,0.02562499718925526,-0.16832813332318697,-0.31513565166812085,-0.31513565166812085,-0.30000000000000004,-0.47058823529411775,-0.18285682973272877,0.5838279806596172,4.8310442813166,-3.3361295357003513,-0.5861191326905193,-0.07029876977152905,-0.07560815253122954,-0.08052884615384615,0.02298850574712641,-0.10850439882697949,-0.15202288516550877,0.25,-0.005154639175257825,-0.08478802992518708,0.0,-0.11253716191719243
94,0.017671806863696293,0.13723074352896947,0.01435840425049184,0.08172849603210097,0.02048943475153364,0.021920708991804316,-0.047955593302596466,-0.047955593302596466,-0.09523809523809523,-0.47058823529411775,0.7794933695451727,-0.09278333457430521,-0.6325610672297914,-2.217787056367432,1.7245742667928097,-0.051039697542533125,-0.0981507823613087,-0.10457516339869277,0.022471910112359605,-0.07236842105263164,-0.002409638554216942,0.19999999999999996,0.0027757216876389545,-0.004995458673932918,-0.11428571428571421,0.051311381648827536
93,0.004131315379893863,0.05420691174850334,-0.0028904055412826146,-0.1574511066350851,0.01006652292467125,0.017050396520849276,-0.174084812183388,-0.174084812183388,-0.1578947368421053,-0.47058823529411775,-0.17779452635545712,-0.1003209980120009,-0.17827144120247573,-0.7609545361036824,0.15130865054906906,0.045816733067729265,-0.04889589905362779,-0.045255474452554845,0.01098901098901095,0.02127659574468077,0.1400966183574881,0.16666666666666674,0.005905148551393236,-0.03149246919214965,0.0,0.25118520245589515
92,0.015740709391692143,0.16514544504441742,-0.0050104205327319296,0.26997847743636116,0.03305588949210159,0.23950171670041387,0.8355128650233383,0.8355128650233383,0.875,-0.47058823529411775,0.11231423235135729,-0.5162127370586983,-3.5426361802286483,2.3095238095238093,0.4349481621112159,0.07238095238095243,-0.02570480928689889,-0.019877675840978548,0.032608695652173836,0.0625,0.10974576271186431,0.1428571428571428,0.01706108970831033,-0.023562676720075393,0.0,-0.08255171128641547
91,0.015992197502543215,-0.134427650954538,0.012523543770405432,0.19028876462177968,0.01877986470393478,-0.13662721383166,-0.34078012693875837,-0.34078012693875837,-0.33333333333333326,-0.47058823529411775,0.03258305433942832,1.815793333193656,-1.1527414107752123,-3.4600849440929182,-0.7456781041458673,0.007104795737122638,-0.03148936170212757,-0.02496099843993771,0.021052631578947434,-0.02614379084967322,0.0068728522336769515,0.0,0.0027056277056276556,-0.036679536679536606,0.0,-0.2727826675693973
90,0.10483206986497628,0.40723501269451967,0.20767906499889177,0.47183497045755995,0.02268418929548144,0.20063814034386707,0.12015812796888459,0.12015812796888459,0.09999999999999987,-0.47058823529411775,-0.19667192082842833,0.7171695375572007,24.665627705627706,-0.9282643929250933,-0.21033057851239667,-0.03703703703703698,0.0061511423550089095,-0.008000000000000007,0.02577319587628879,-0.057046979865771785,-0.02578687902919985,0.125,-0.07429393775858972,-0.04008016032064132,0.032258064516129004,-0.04394376687459278
89,0.0049154860998399386,-0.15971587248013253,0.02274016708806026,-0.16222586337282585,-0.011897177275924986,-0.11587308578895594,-0.3435507741347905,-0.3435507741347905,-0.31818181818181823,-0.47058823529411775,0.6806293775768715,-0.3302943508724797,-0.8975232595011435,0.9813359528487229,-0.5277341705913134,0.16483516483516492,-0.03493449781659397,-0.0532258064516129,-0.005025125628140725,0.13879003558718872,0.12534059945504072,0.11111111111111116,-0.01671200932763295,-0.04853862212943638,0.0,0.0030187944298374347
88,0.026487216634142108,-0.014058431955363604,0.04955350631515287,-0.17643563164783582,0.003967876202262577,-0.04925519371606024,0.06529373509646641,0.06529373509646641,0.06666666666666665,-0.47058823529411775,-0.2055626574842423,0.24178604241883095,5.408058463361643,-4.203024293505205,3.579224376731302,0.03144654088050314,-0.17466063348416283,-0.19761499148211237,0.010101010101010166,0.034375000000000044,0.043237634036665584,0.09999999999999987,-0.021936758893280617,-0.13878222709818977,-0.0625,0.19718446601941753
87,0.029931715796380987,0.02614376664308704,0.043319673379015766,0.06493245526702784,0.01626774204600956,0.12440539612117396,0.2686907329779007,0.2686907329779007,0.25,-0.47058823529411775,-0.016900439020760438,-0.20947463305596514,-0.6340463567994081,-1.8053556226298273,-0.6294839997580304,0.01981707317073189,-0.009868421052631526,-0.04033970276008503,0.014999999999999902,0.012084592145015227,0.21551724137931028,0.0,-0.01333602748029905,-0.031847133757961776,0.0,-0.0364122942178251
86,0.04272190368619033,0.017934354991229418,0.07927953545451816,0.24792867435158494,0.004417385713669564,0.23227526926263464,0.3845635646232317,0.3845635646232317,0.3500000000000001,-0.47058823529411775,0.7256350820757842,0.3111850777748484,-0.44560487380330727,-1.3079953872765713,0.523265306122449,-0.0358744394618834,0.06755260243632333,0.04424778761061954,0.019704433497536922,-0.05074626865671639,-0.03600654664484437,0.09090909090909083,-0.036657792340774153,0.024342105263158054,0.0,-0.18431240531896986
85,0.005657727325302897,0.006545286932472916,-0.0020418690624597335,-0.15540022749375426,0.014326540202599602,-0.16029280140517776,-0.37431940872546976,-0.37431940872546976,-0.37037037037037035,-0.47058823529411775,-0.3865486783887363,-0.18122181840117024,1.3661315642882461,-2.332293291731669,-0.4576634512325831,-0.09147286821705425,0.021784232365145373,0.006355932203389925,0.01449275362318847,-0.11006289308176098,-0.1496887379739672,0.08333333333333348,0.008503401360544283,0.007707129094412402,0.0,0.19170449855550986
84,0.008835375678728052,-0.13650790295933857,0.016511493641970354,-0.0268862704251025,0.00033246062419478584,-0.08268987294263652,-0.509090909090909,-0.509090909090909,-0.47058823529411775,-0.47058823529411775,-0.2671153296153296,-0.27925737650569127,-0.06037582398767227,-2.9925058548009367,1.6814229249011858,-0.16211604095563137,-0.09746192893401007,-0.10947368421052639,0.0,-0.17314487632508846,-0.1830282861896838,0.0769230769230771,-0.00843170320404718,-0.10325047801147236,0.0,-0.11264069264069276
83,0.0718406810664356,-0.040215559970464554,0.15208249181376599,0.12271290473641949,-0.01848159072620037,0.0433971424986499,-0.5516330994946066,-0.5516330994946066,-0.5555555555555556,-0.5555555555555556,0.5253960317557103,1.8192442672663462,3.590961893264697,-1.5085801598495534,-0.31891214622641506,0.08757637474541746,-0.22047244094488194,-0.24349881796690298,-0.00952380952380949,0.08547008547008561,0.19185336048879842,0.0,-0.08418367346938771,-0.2181947405828002,-0.033333333333333326,-0.14508732559274073
82,0.019126077933339536,0.04709037662950388,0.030936562486837405,-0.021909227348734017,0.0035216815029812665,0.018435444573412285,0.6764804845222072,0.6764804845222072,0.5,0.5,-0.3233906814620575,-0.5516968407821905,-0.6983334739056446,-0.32100762653108394,-0.3179309598528298,-0.009363295880149725,-0.3708513708513709,-0.38750000000000007,0.0,0.0,0.26862611073137366,0.1428571428571428,-0.01532033426183843,-0.3363636363636364,-0.06896551724137923,0.07053184204519503
81,-0.009230988421504271,-0.07586360868682773,-0.018568976361369116,-0.15637731596061444,0.003443713368075141,-0.18396410456496293,-0.49162067235323637,-0.49162067235323637,-0.5,-0.5,-0.18341545260123115,-0.42328170703762114,-0.6169596894890055,-3.324710687542546,1.0836109788989372,-0.19659735349716445,-0.38990825688073394,-0.40306122448979587,0.004807692307692291,-0.19685039370078738,0.27209051724137945,0.0625,0.012729844413012614,-0.3561643835616438,-0.07407407407407418,0.09541577825159919
80,-0.009427018277827659,-0.010502457601433757,-0.0313804219470637,-0.09964163853333574,0.019717244240542442,0.1776677529348114,3.073825503355705,3.073825503355705,3.333333333333334,3.333333333333334,0.24485602662422234,-0.35741498188617504,-2.406955775010734,-1.2521229868228403,-0.13112007918982715,0.10352941176470587,0.2142857142857144,0.19658119658119655,0.019138755980861344,0.0980392156862746,0.8058026260059297,0.0,0.029562383612663057,0.2085106382978723,0.0,0.09897810218978087
79,-0.12314596059615546,-0.10136724819105958,-0.0038898257992423524,0.06320712627890535,-0.2735312707054114,0.21146398140975986,23.853231902316114,23.853231902316114,27.846153846153847,27.307692307692307,0.4338501952761764,0.8471247226566763,-0.56170654296875,-5.314169570267131,0.651038471650162,0.187633262260128,13.074303405572754,12.55,-0.06103286384976525,0.16964285714285698,0.004925530667292177,0.0588235294117645,-0.17160298439972876,11.580985915492958,0.08000000000000007,-0.1547998583067658
78,0.0052019765277702135,-0.009553683898535281,-0.09990058192389772,0.03075022631261315,0.18693272922520188,0.007483023194285288,-0.9405970900002144,-0.9405970900002144,-0.9279999999999999,-0.9293478260869565,0.3264995095535721,0.19373609278695625,1.5340481827043586,-0.19289271772782335,0.3182590233545648,-0.16157989228007186,0.07083150021997353,0.07538218239325234,0.20500000000000007,-0.11068702290076338,-0.9441008285680943,0.05555555555555558,0.18094978165938858,-0.006297229219143663,0.07407407407407396,-0.03908214585079628
77,0.0020269703496218483,0.18249784290352666,0.0006798624341910475,0.07820490536003444,0.003793341247562143,0.10489020776708369,0.3617119039023269,0.3617119039023269,0.2222222222222221,0.26923076923076916,0.06850696375425502,-0.3223608785661852,1.3125240424245757,0.42128085390260184,0.3431309389595749,0.008565310492505418,0.09942481511914547,0.10098039215686283,0.004149377593360981,-0.16309012875536488,-0.039665970772442716,0.05263157894736836,0.0016177490177953224,-0.04717645402056048,0.13793103448275867,0.09671791516737538
76,0.013630673315278452,0.12086869232196795,0.0043179378608260155,-0.12394204866045866,0.025803953801759594,0.2523351898653947,0.8683297180043383,0.8683297180043383,0.9393939393939394,0.909090909090909,-0.12635907642856736,0.5645516620212028,-0.45519355528623373,-3.5397793945083316,-0.6488398585047065,0.5031847133757963,0.13079222720478323,0.12600178094390047,0.03305785123966953,0.5025641025641028,0.40000000000000013,0.0,0.01199815413013372,-0.04374815252734254,0.18181818181818188,0.27947902167428906
75,0.0832467236656329,0.2460592513988764,0.09107953908029676,0.40315738498789355,0.07322239942226094,0.24537075111816842,0.502599429802495,0.502599429802495,0.53125,0.5079365079365079,0.8638952536824878,0.8500645703349878,-0.08605949576899585,-1.2306874884494547,0.42624210346593827,0.19350282485875692,-0.6239259748843358,-0.608936338473705,0.06800000000000006,0.15358361774744012,0.0714285714285714,0.04999999999999982,-0.00911992704058373,-0.6548686244204018,0.1282051282051282,-0.11197451239412537
74,0.044672693719358,0.1911221571605881,-0.0026345780519145823,0.27584278969601583,0.10622322409887186,0.34005140787475163,0.38608480644247356,0.38608480644247356,0.37755102040816335,0.3894736842105264,0.2472586140283095,-0.08057659233593062,2.1740800839975183,-0.3100340476667335,0.20620099359549893,0.36094674556213024,0.4160808435852372,0.44084934277047516,0.10861423220973787,0.2751479289940828,2.072463768115942,0.04761904761904767,0.05890473999079626,0.19301388266905528,0.20454545454545459,-0.06641582079103958
73,0.003820628729195308,-0.09003440433844534,-0.08635401169215196,0.09847218390058377,0.1095997248221301,0.13202501151447033,0.3332362942637521,0.3332362942637521,0.3555555555555556,0.35606060606060597,0.3494721309351829,-0.0759939446327218,1.0033906460270803,2.105079825834543,0.5308157999206033,0.0304347826086957,0.330127210673286,0.38877192982456155,0.11486486486486491,-0.07192575406032475,-0.30801886792452826,0.045454545454545414,0.10538896132116471,0.1677927927927927,0.2075471698113207,-0.17152497891086316
72,0.0658773420797536,0.07149882284106268,0.04873561323400044,-0.025027026627692517,0.082434342682836,-0.21968077180022538,-0.36722463030843633,-0.36722463030843633,-0.371584699453552,-0.36871508379888274,-0.28718695678485495,0.37251835096246655,-0.8992558457202685,2.500514162849397,1.2138156828422315,-0.10548523206751059,0.009097270818754222,0.05154118241536132,0.08181818181818179,-0.1975,-0.3837764144512611,0.04347826086956519,0.015529781796736586,0.01928640308582441,0.03125,0.09899309876682882
71,0.05470453521187291,-0.12581355619290802,0.09325026495762279,-0.033895907738471065,0.018632738971630092,-0.24005252677835764,-0.4716489357796818,-0.4716489357796818,-0.4782608695652174,-0.47787610619469023,-0.31891037369907926,0.17003252865190022,-2.297884228562914,-2.52089731606356,-0.8338946320320966,-0.25943396226415094,-0.13638465094775776,-0.10860163382988952,0.025210084033613578,-0.31464174454828653,-0.33075221238938046,0.04166666666666674,-0.03426248548199751,-0.05171870072532314,-0.06060606060606066,-0.0952233889232037
70,0.008174554285690583,-0.1896862507138778,0.04389606287333403,-0.18732385528813222,-0.027703034643590696,-0.3296646826965429,-1.3445798535358449,-1.3445798535358449,-1.4,-1.4067796610169492,-0.38110896196002575,-0.12377520858825741,2.7731538616077835,-0.8449165935030729,-0.7785613540197461,0.07133757961783438,-0.3458244111349036,-0.3401617250673855,-0.030054644808743203,0.04545454545454519,0.150413223140496,0.040000000000000036,-0.035478051713770276,-0.1988693049551048,-0.17741935483870963,-0.0028444646717488142
69,0.019179307589474615,-0.022769903935452862,0.0468854968899568,-0.15829974231695976,-0.010697114360261217,-0.21443975502708346,-0.022422067185546624,0.08880106464491666,-0.04166666666666663,-0.04166666666666663,-0.1565510296211411,-0.15258631303093728,-0.06932485471749783,-1.327332427536232,1.1508757961783438,0.06777645659928666,-0.6133387888707038,-0.6143790849673203,-0.014084507042253502,0.10000000000000009,0.5775862068965518,0.03846153846153855,-0.02930174563591026,-0.47820672478206727,-0.27450980392156865,0.1609995435874032
68,0.03163508331458087,0.03669924648220624,0.02671147519236583,-0.10665800336340014,0.037253386531652444,0.5576317807220259,-2.57204735778227,-2.4114596836919886,-2.3478260869565215,-2.304347826086956,0.25693323671815826,-0.1573345730925212,-0.5573499844712883,0.31546177793151164,0.7038682213585046,0.13140311804008897,-0.6285714285714286,-0.6271186440677966,0.037142857142857144,0.1462450592885376,1.9608378870673948,0.03703703703703698,0.005352172982230785,-0.5664280031821798,-0.16216216216216217,0.16049140049140043
67,0.028794032089387134,0.13548052813890465,0.06469468886411,0.14994823175062244,-0.011755667678142956,-0.03660547395379743,-0.24197018998635456,-0.24197018998635456,-0.25806451612903225,-0.2666666666666666,0.23775770241144611,0.05537821914839114,-0.5590472673559823,-1.3744412306074152,-0.15468172930697366,-0.14271653543307083,-0.7378917378917379,-0.7102272727272727,-0.008264462809917328,-0.1724137931034483,1.5515226084281761,0.03571428571428559,-0.0393952299829643,-0.7192660550458716,-0.09677419354838701,-0.012618563685636963
66,0.03277833995900847,0.2597908602682375,0.056480678480483215,0.028160367881777892,0.003935554396313101,0.2082831610503486,0.5376813099318032,0.5376813099318032,0.5217391304347825,0.5909090909090908,0.08785328675770088,0.0006301167816435971,-0.5432543338078888,-2.4508426966292136,0.2654844512978669,0.0677382319173363,4.521739130434782,3.686274509803922,0.011111111111111072,0.07500000000000018,7.969258589511753,0.034482758620689724,-0.02793172245621811,4.0392156862745106,0.0714285714285714,0.22531949566858245
65,0.06729118936886835,0.25436179051247243,0.04953840823566935,0.19880152414863717,0.0900247848145923,0.37410582533172065,1.9137306107746683,1.9137306107746683,2.1714285714285717,2.1142857142857148,0.39419769484136835,-0.21820963611514077,-12.182251558489183,-2.459341723136496,-0.3061535337124289,0.05591397849462365,1.7696850393700787,1.6569037656903767,0.0934065934065933,0.04651162790697683,-0.9175,0.03333333333333344,0.02120866590649939,1.2749675745784694,0.19999999999999996,0.04633907321853559
64,0.04168518334272986,0.1162512216989895,0.0048200318280484655,-0.024661172990431357,0.08713997954965347,-0.085899855596134,-0.15942824029360636,-0.15942824029360636,-0.16216216216216217,-0.1651376146788991,0.27947878644063073,0.12881188059737103,-0.7267823178330164,-48.80563847429519,21.093809454119715,0.04582484725050917,0.23951670220326937,0.2409448818897637,0.08291457286432147,-0.04444444444444451,-0.6585206907787553,0.032258064516129004,0.04376953997320232,0.17844925883694418,0.05555555555555558,0.14450093658014462
63,0.04379860015975123,0.009397935167815064,0.029699756966567348,0.09534538252042579,0.05986616234501496,0.07997570358372141,0.079308030995211,0.079308030995211,0.07526881720430101,0.08791208791208782,-0.014755216146188466,0.6922511760663883,-0.7731200864190122,-0.7674247575173103,0.2220485271615651,-0.019474196689386547,0.21100917431192667,0.22715736040609147,0.058004640371229765,-0.09302325581395354,-0.25238549618320616,0.03125,0.015404364569961526,0.14755684567005312,0.07894736842105265,-0.07850128594809447
62,0.07296621692149818,-0.2902669648873787,0.086006927199902,0.3463727085734951,0.058527541994632504,-0.13558479608653573,-0.36543489554501396,-0.36543489554501396,-0.38,-0.38383838383838387,-0.1533357324770236,0.8477247100641248,-14.975267821716704,-6.370980251774954,-0.9759172633598752,0.09731876861966238,0.0023674242424243097,0.0175801447776629,0.04824561403508776,0.03418803418803429,-0.15571155073388643,0.06060606060606055,-0.013485040033712647,0.039207419898819484,-0.024390243902438935,-0.4728195369489375
61,0.04338541781822136,0.27228835344204994,0.045082541650927954,0.03463660420675785,0.04145758194389537,0.17096396723560514,0.35354985907931824,0.35354985907931824,0.37096774193548376,0.360655737704918,0.2989677912957047,-0.5207450782842711,-1.2129804006927423,-1.506948224342668,20.54332658113887,0.016289592760180938,-0.11998110533774209,-0.11178861788617878,0.039748953974895196,-0.028925619834710647,-0.05668934240362811,0.028571428571428692,-0.001922255446390464,-0.06612576064908726,-0.050000000000000044,0.22957526170135978
60,0.03469448258172014,0.0924492501647336,0.0036139475111915953,0.02644901668072963,0.07012308485604102,0.11780883873190895,0.4371114394217326,0.4371114394217326,0.43529411764705883,0.4457831325301205,-0.25782807434405264,0.21717123618650547,-1.9928904687847147,-1.3054319959681837,-0.291254427113261,0.21371326803205704,0.030595813204508993,0.04004576659038883,0.05835010060362178,0.16595744680851077,0.3076923076923077,0.0277777777777779,0.03423924673657175,0.03431798436142497,0.0,0.06438986202172403
59,0.05805207212218688,0.013180747932503012,0.018742674219102362,0.03628790034462037,0.1000758293915367,0.1449055047868968,0.18886136735271197,0.18886136735271197,0.180327868852459,0.18333333333333335,0.3325284206527932,0.05695507405550604,-1.631103155068248,-1.5046631752636488,0.20738808060260316,0.11958914159941303,0.05312499999999987,0.07040704070407044,0.09315589353612164,0.058394160583941535,0.030637254901960675,0.05405405405405417,0.03972687771570449,0.04787904241915153,0.026315789473684292,-0.022340718948239413
58,0.06900531044057279,0.05222359099051599,0.05736645810830088,0.20551152875132517,0.08052791139259075,0.167315685845548,0.19990134060704534,0.19990134060704534,0.20138888888888884,0.1901408450704225,-0.08552979862765464,0.10652724047453899,1.0547440079421357,-6.207477432653351,-0.7438589637153881,0.152686762778506,0.18100890207715148,0.2055498458376157,0.07478260869565223,0.05517241379310356,0.030321046373364968,0.025641025641025772,0.010746268656716573,0.1026052104208417,0.10256410256410242,-0.1271393643031784
57,0.05485587582383822,0.2475498591520493,0.03850956317139054,-0.10980158303332466,0.07069202939882335,-0.007926141851701263,-0.019598075016323713,-0.019598075016323713,-0.5086705202312138,-0.5088757396449703,0.3410529948594345,-0.06569587226545948,-2.639632799558255,-3.0802167503821796,7.264299332697808,0.14951677089255244,0.07705192629815727,0.10315430520034097,0.06634304207119746,0.06862745098039214,-0.09174841315637616,0.04999999999999982,0.015160464658397155,0.0588876772082878,0.023255813953488413,0.40142210730446015
56,0.05078103288067348,0.1836432780650925,0.021883413095695303,0.07460193643421054,0.07793528878674238,0.13916611931015632,0.23064779504990063,0.23064779504990063,0.22352941176470598,0.2289156626506026,0.04509182527773792,0.03363804886586941,-1.0794569564302252,-0.2827269446540468,0.6304812988436139,0.24085064292779435,0.05754276827371707,0.08114374034003102,0.0743550834597877,0.1651376146788992,0.06797966963151203,0.04761904761904767,0.025795190069821672,0.03398558187435641,0.045454545454545414,0.10147601476014767
55,0.09317485360528721,0.3202601254464774,0.048497887383244676,0.27859424708815883,0.13297348784587504,0.19200968461228385,0.3780426207427361,0.3780426207427361,0.375,0.3725490196078429,0.030266141876139407,0.05529599211816594,13.618543046357615,-0.466134875041165,0.20643718982246262,0.33718612993224384,0.1044117647058822,0.13009292351679758,0.12570621468926557,0.2440944881889764,0.1725163593099348,0.045454545454545414,0.03630175836642091,0.07370517928286846,0.06521739130434767,0.03259352317141251
54,0.10343151186648702,0.36645244979947766,0.08249509149008949,0.5157179104516216,0.1206912712208763,0.2988329971266366,0.348774293768054,0.348774293768054,0.3356643356643356,0.33571428571428585,0.667699163658162,0.2155557014312841,0.10283591555676352,4.187628512679917,0.8876711204154095,0.0578241430700448,0.13948069241011973,0.16635041113219495,0.11668757841907151,-0.06118143459915615,-0.12075088787417565,0.04347826086956519,0.015690567414705203,0.07575757575757569,0.08163265306122458,-0.09847921595133491
53,0.06320776132031192,0.06494212653479514,0.018330371472097484,-0.08917435482205827,0.09894325963118344,-0.10641285074912166,-0.07969054643960183,-0.07969054643960183,-0.07853403141361248,-0.07486631016042788,-0.0906677423157739,0.11661323002026136,-0.16937232993756157,-0.4136548307184146,0.27572688257889344,0.06396167934629471,0.06281040023371309,0.09273318872017344,0.09887640449438195,-0.04719101123595504,-0.14887478361223305,0.04166666666666674,0.03359080294593153,0.061799367634377766,0.037735849056603765,0.16921577447893243
52,0.04837415189624661,-0.03967423493384625,-0.0017911275046214037,0.014043699210791294,0.08539010321797202,-0.15255187471877374,-0.22331482727023466,-0.22331482727023466,-0.22727272727272718,-0.22543352601156064,-0.2505214377318825,0.11346440444801109,-0.24948567811362554,-1.3504979832803803,-0.07575423674127357,-0.10248940677966101,-0.04672897196261683,-0.018362282878411906,0.0848670756646217,-0.18160377358490565,-0.23661016949152547,0.06000000000000005,0.035279805352798066,0.02084461288576067,-0.054545454545454564,-0.05302981724911848
51,0.060500983724318,-0.00982604725059577,0.05639252370153547,0.1630006734305327,0.06328903215681159,0.05348780530264774,-0.09740296967264805,-0.09740296967264805,-0.09558823529411775,-0.09701492537313439,0.022811257239280014,0.14554001184010712,0.4522403795466525,1.6226233144216398,-0.21495887278226555,-0.011212747123045208,-0.10870818915801617,-0.08998988877654202,0.059377945334590176,-0.08933717579250722,-0.06127886323268206,0.05660377358490565,0.0026859157293941394,-0.036329885971890685,-0.03846153846153855,-0.14856446370530862
50,0.02587491391177066,-0.14713888367726868,0.03026620638493238,-0.0031422561971392593,0.02291426031738153,-0.03687588303822986,-0.18891407252888315,-0.18891407252888315,-0.2032520325203252,-0.20661157024793386,-0.006816267517359864,0.14929797805321265,1.8184689099422848,1.314517364579567,-0.6337579350629519,-0.014025663980901215,-0.19767065674538986,-0.18499999999999994,0.020462633451957313,-0.069620253164557,0.016083254493850507,0.05357142857142838,-0.0028461409676879823,-0.08392955421023673,-0.12,-0.1444250039764593
49,0.04516983331489777,-0.1644154420478786,0.04699579670052967,-0.12467291149407334,0.043929902310332114,-0.06147705789438129,-0.10286656362699642,-0.10286656362699642,-0.09183673469387754,-0.08333333333333326,0.1660670612098396,0.04864619824804284,-1.537683847203977,-0.7972998019466421,-0.35075943277359056,0.001210653753026536,-0.20282258064516134,-0.19700068166325835,0.04184829991281602,-0.020408163265306145,0.17597765363128492,0.05084745762711873,-0.001175285426460726,-0.11324722138780408,-0.09090909090909083,-0.045454545454545636
48,0.07096981394045332,-0.057031874664260296,0.06291711774620157,0.054604905029011164,0.07645410341750747,0.20569849853692768,0.41065480757303585,0.41065480757303585,0.4157303370786516,0.40909090909090917,0.035402588477837504,0.0067291144019361315,-0.3586792498023905,0.08635621448631703,-0.5869160197600565,0.15356711003627566,-0.07030854830551336,-0.0696095076400679,0.07531380753138084,0.10763888888888884,0.37608867775138544,0.06451612903225823,0.005042864346949116,-0.056910569105691144,-0.025000000000000022,-0.10585256597526527
47,0.0896445585173462,0.2316830361507396,0.143887231415456,0.15797664630756847,0.053167146304962776,-0.06138870383409323,-0.3356098132895624,-0.3356098132895624,-0.3412698412698413,-0.33870967741935487,0.0014546299266600116,0.007393638322843232,6.2170348652635905,-3.9267970083928527,4.1584378310042025,-0.06839622641509435,-0.13220892274211093,-0.1395985401459855,0.048249027237354136,-0.1316614420062696,-0.046605293440736384,0.07575757575757569,-0.03345040976751967,-0.09446839080459768,-0.05128205128205132,0.06360270093661513
46,0.054169503981920775,-0.013880058768532155,0.05335210251543265,0.09885334384850997,0.05476654512619916,0.2820993818042672,0.7705376881712525,0.7705376881712525,0.7710843373493976,0.7439024390243902,0.03197332449672774,-0.0082389869182673,-1.3358363629306664,-2.0176779918655763,-0.8203938478658295,0.15189873417721533,0.0614420062695924,0.05302226935312837,0.05048255382331113,0.09747292418772568,0.26735063367531686,0.05633802816901423,0.0005191209551826947,0.031733439111463646,0.027027027027026973,-0.10249846405898022
45,0.07127625351075983,0.3082004490576522,0.12968214366755548,0.17009435818121377,0.028673004969604232,-0.13300474378520044,-0.332892205041598,-0.33411868935062783,-0.33333333333333337,-0.32867132867132864,0.23301583988590036,-0.06543651956723973,-1.2859025032938076,-1.6083935845111075,2.778982500783685,0.2642246642246642,-0.030124040165386834,-0.046324269889224556,0.023321554770318054,0.20394736842105265,0.12809523809523826,0.06666666666666665,-0.039778623313732275,-0.03114186851211076,0.0,0.11796919566457498
44,0.09839019304108798,0.2353805304079999,0.18030401882765368,0.41748187450070096,0.03277231232618605,-0.062169553658445786,-0.260420989724265,-0.2590587618964464,-0.26530612244897955,-0.26041666666666663,0.23814287899980147,0.48722601950123834,-1.9385291184951625,-1.6425514408753408,-0.47251851779562604,0.2688815916553988,-0.1510353227771012,-0.18057022175290394,0.03038674033149169,0.2404371584699454,0.24609539890249033,0.07499999999999996,-0.0596181556195966,-0.11150793650793656,-0.07894736842105265,-0.1284824982141034
43,0.11303967228426304,0.1860162626544648,0.016793761535470075,-0.25028629388476265,0.20115197993690148,2.1180870990173615,7.73306734902304,7.73306734902304,7.75,7.732394366197184,0.34706899996845,0.24415305574725865,-22.313128122666974,-9.032838687691688,7.195826125567756,-0.18678642106865573,1.1958393113342898,1.1855670103092781,0.19772117962466496,-0.21145374449339205,-0.07655826558265577,0.06976744186046524,0.07910361999616922,0.5752568110763736,0.37142857142857144,0.581967213114754
42,0.007484243083789144,-0.14862244030628502,0.0034659044059037747,-0.0371855019966395,0.010598365911954843,-0.44894092447723344,-0.7034784759860823,-0.7034784759860823,-0.7031746031746031,-0.7032258064516129,-0.3275736549853129,-0.016997387284785948,-1.1339533392343022,-1.7130519517249536,-0.6260501119103543,-0.3204792212654437,-0.021888271806599136,-0.025353773584905648,0.010072747621712397,-0.4329608938547487,-0.7134996331621424,0.07608695652173902,0.003017394391196415,-0.03062092429827057,0.0,-0.11576609918578817
41,0.002036395196206131,-0.14167367418071375,-0.009883188459575143,-0.2728849418329258,0.011208612083402958,-0.34717085142192994,-0.6560788086817835,-0.6560788086817835,-0.6577540106951871,-0.657608695652174,-0.4138344735637789,-0.3013647936930257,-2.7649028935802145,-0.5563149715324177,-0.7427975527525497,-0.18842975206611556,-0.08750835003340018,-0.08106473079249843,0.008864265927977844,-0.19704433497536944,-0.2227912932138284,0.07070707070707072,0.0092019111661652,-0.04153261187481716,-0.04166666666666663,0.18047882136279902
40,0.05061672481649904,0.22132307476381952,0.09683187899196466,-0.07299713160710264,0.015795558725722803,-0.25657718080242853,-1.1052611681683573,-1.1052611681683573,-1.109375,-1.1111111111111112,0.10818055622038192,-0.29062642970090535,2.817875643239362,-3.5264428253899887,7.2963362827704366,0.12186014935505751,-0.12920937042459735,-0.11915734035549708,0.009335529928610642,0.11042944785276076,0.1614497528830312,0.06603773584905648,-0.03314045239347718,-0.06011595971925543,-0.0652173913043479,0.31754361083534266
39,0.025519402656574597,-0.17128494359980384,0.022609557918714884,0.009693011213664837,0.027886752685505778,0.1693419229558708,-1.2511672453010894,-1.2511672453010894,-1.2857142857142856,-1.2857142857142856,0.21609106033998682,0.23630152998220577,-1.0339887485316221,-1.158348210695617,-0.13926168800674432,0.09470499243570352,-0.7229928541403952,-0.7242152466367713,0.02611534276387384,0.08839779005524862,0.19290780141843977,0.07079646017699126,0.002357635110627365,-0.5889610389610389,-0.32558139534883723,-0.17927879440258354
38,0.05210839859701588,0.004286753919469977,0.05414021296407001,0.12022551702492024,0.05046387062474911,0.7488838942085656,94.43064823641564,94.43064823641564,79.0,77.0,0.01507119778359689,-0.15110184686708872,-1.5048965789820385,-1.7845367840492417,0.12693279168330562,0.2515201768933113,-0.12443095599393017,-0.13008130081300828,0.049310710498409405,0.21827411167512678,3.4494649227110585,0.05785123966942152,-0.0016283698208793274,-0.09794628751974721,-0.0344827586206895,-0.10348219555380678
37,0.021546894150656914,-0.15965069547240318,0.027525713845917066,0.10958188412259573,0.016690768052384675,-0.22157840875662038,-0.7052771166779463,-0.7052771166779463,-0.70625,-0.7051282051282051,-0.25155080523623763,0.36227937997091164,-4.138992780725406,-6.899365613671673,-0.6644787976977067,0.03356890459363959,-0.098786828422877,-0.10903426791277249,0.014653865588681203,-0.01666666666666672,0.16889363976483174,0.0625,-0.004711852120333315,-0.11383537653239928,0.0,-0.24263038548752824
36,0.05168358558086239,0.2395344459416362,0.11870746346752359,0.04362197414751012,-0.00333480342239878,-0.009283625144361318,-0.49267466000084736,-0.49267466000084736,-0.4893617021276596,-0.4782608695652174,0.09796432941525457,0.14533345901327133,-26.717171437280058,-1.9217915714765388,1.825550668451522,0.11239316239316244,0.12500000000000022,0.11188811188811187,-0.004980079681274785,0.09745762711864403,0.2082761774119799,0.0588235294117645,-0.05225782957028413,0.04743083003952564,0.0714285714285714,0.1877535252076492
35,0.024616449368871418,-0.19920120784304718,0.05271437729306583,0.24398560588703044,-0.001272823592572525,0.16503113475427988,-2.1842931587386425,-2.1842931587386425,-2.166666666666667,-2.166666666666667,0.15172681127606813,0.17132496569469713,-1.0110881611710718,-2.481517986810466,-0.957189046844092,-0.06895889358432583,-0.14188034188034193,-0.160377358490566,-0.0030030030030029353,-0.06177606177606165,-0.19545884578997152,0.04861111111111116,-0.025360230547550433,-0.2113207547169812,0.06666666666666665,-0.35631810050414703
34,0.08420084594230515,0.6471401712019655,0.1593475350663267,0.14538461538461545,0.011218285128745231,0.1308945530395209,-1.75695991876569,-1.75695991876569,-1.75,-1.7142857142857144,-0.20590856299250238,-0.08406869000880424,-139.1490622874356,-2.222951973542542,27.343381718884736,-0.029915411594800823,-0.6852589641434264,-0.6966292134831461,0.010040160642570184,-0.02880658436214001,0.1168861712135465,0.052980132450331174,-0.06721860831854909,-0.6854066985645932,-0.03125,0.4381000505305712
33,0.08884888541480285,0.4234143874883973,0.03199813633427517,0.12616194142693637,0.15215040963162085,0.06033334078562014,1.49609673392581,1.49609673392581,1.4761904761904763,1.6,0.5372073048364439,0.11758393149280244,-0.05056017759120823,0.15559491788005841,1.1148236743727917,0.128668651637601,0.056962025316455556,0.03703703703703698,0.09145129224652093,0.1186440677966103,2.6047588966098125,0.05031446540880502,0.058114961961115874,0.015209125475285301,0.0,0.2639669711876318
32,0.017576887868529845,0.011214967299060019,0.010636172410253053,-0.009580468052240776,0.02449921231748653,0.3548267729900174,1.2062206564009168,1.2062206564009168,1.1346153846153846,1.1153846153846154,0.16111324632789126,-0.18239646099764173,-1.0259354828194467,-1.10330190395619,-0.054455323880512,0.019596758997550312,1.2335329341317367,1.2023809523809526,0.023679417122040025,-0.06818181818181823,-0.0703312109352181,0.04790419161676662,0.006790493309366763,0.9700374531835205,0.12903225806451601,0.020988254916950444
31,0.03486313230405513,0.02677661870009218,0.03523221384872177,0.07676362288277616,0.0345000097290884,0.12274837078105238,0.8299241475907895,0.8299241475907895,0.8288288288288286,0.8272727272727269,0.14439461318711366,0.2091292015717907,0.28116430530164527,1.0992437835041335,-0.1208985709739464,-0.1801885048974312,1.35656836461126,1.3567567567567567,0.0338078291814945,-0.19918699186991873,-0.638014451775055,0.04571428571428582,-0.00039674667724654,1.129277566539924,0.11428571428571432,-0.046422980055816465
30,0.001779373783357796,-0.12888282313735588,-0.008368297098651056,-0.05400846034032636,0.01177027285748955,-0.039064102706269144,-0.776848013784994,-0.776848013784994,-0.7733990147783251,-0.7761194029850746,-0.02782085432250525,0.2387297070963701,4.828476511114579,3.0427979654973516,-0.5559864659832354,-0.025022542831379613,0.013651877133105783,0.029816513761467878,0.01075731497418242,-0.055837563451776595,-0.6080541572643638,0.043715846994535346,0.009922603691208565,-0.03749999999999998,0.07692307692307687,-0.07909201227782137
29,0.028855624529642077,-0.06512262987186601,0.029988785768165105,0.09912624057464581,0.027762175869700423,0.012129757682522557,1.6844603887388359,1.6844603887388359,1.652173913043478,1.6666666666666665,-0.12877651717578076,-0.21338816410338535,-0.8971550764499088,-0.5828000446172643,-0.5224109425296317,0.2702890173410404,0.14590347923681257,0.15144766146993316,0.025968497232865095,0.25806451612903203,0.19264836138175379,0.04712041884816753,-0.000982511298880051,0.07699443413729123,0.0714285714285714,-0.14944577939694603
28,0.017336400222636605,-0.030892169808808823,0.006347098739200252,-0.03333168611288562,0.027963546049625032,0.03658025169499157,0.22150310639519266,0.22150310639519266,0.21311475409836067,0.2250000000000001,0.38790465894274795,0.07555841549603004,0.11073089083131848,-0.9574397970540505,-0.046554491539256726,-0.10447761194029836,0.050930460333006966,0.05609284332688591,0.02614107883817418,-0.12820512820512808,-0.23245451169699216,0.040000000000000036,0.010424862313139327,0.04565030146425486,0.0,0.002460585072450616
27,0.07823174322194637,0.3568803598843713,0.12619868523081856,-0.03789525138622507,0.03282099380306058,0.015651772803188635,-0.10179191364856055,-0.10179191364856055,-0.10135135135135132,-0.10884353741496589,-0.03960984559508374,0.23292075576800753,-41.7736253432456,-61.79247626004383,2.9683529856548754,0.053048780487804814,-0.15563839701770743,-0.16117216117216115,0.029518803073190547,0.02941176470588247,-0.022738268021286978,0.043269230769230616,-0.04204788787229907,-0.1392092257001647,-0.022222222222222254,0.41036363636363604
26,-0.024825228696229718,-0.10256534610348278,-0.01314746287683688,0.13406658359134394,-0.03688020490855459,0.019275395916212412,-2.4205676093065644,-2.4205676093065644,-2.421052631578947,-2.442748091603053,-0.14563427858521327,-0.20992530905557794,-1.0173162875272466,-1.2837948738899057,-0.2122803501275814,0.12063308241652182,-0.5286975717439293,-0.534934497816594,-0.04006284367635504,0.08571428571428563,0.29752475247524757,0.03686635944700467,-0.012395854501117687,-0.5330143540669856,0.0,-0.20865025138584503
25,0.03277787731880699,0.13681054875310728,0.030208911105712,0.05151505202701179,0.03549517326766205,0.1144504087407876,-1.9796554052582283,-1.9796554052582283,-1.9735449735449735,-1.962962962962963,0.161139255875429,-0.19514214490146597,0.8365585277935876,-1.9805705624333159,0.2642511994614547,0.11505339304168083,0.28103044496487106,0.267605633802817,0.03436988543371511,0.16228070175438614,1.3636016787485694,0.04444444444444451,0.0024691358024691024,0.24180327868852447,0.022727272727272707,0.08112731123238559
24,0.029913596732969783,0.03916228744886685,0.01493627102608519,-0.01768893199349142,0.045674824547776494,0.1440992053064578,0.3334519177320734,0.3334519177320734,0.326086956521739,0.3296703296703296,0.3269215788790365,0.4890341706194239,0.015469242291203944,-0.48194076831074395,0.10828368082567863,-0.030583873957367835,0.3308957952468008,0.3222222222222224,0.04430379746835422,-0.0641509433962264,-0.25230024213075064,0.038297872340425476,0.015394088669950623,0.25907590759075916,0.04444444444444429,0.057861824757025504
23,0.03680271025167792,-0.01152436781392363,0.04037181897789388,0.10827721589522632,0.033157205477570395,-0.07780588695596702,-0.2989182830775574,-0.2989182830775574,-0.2991803278688525,-0.30165289256198347,0.06436242877927967,0.08675822619956897,0.25197731492078024,-0.24321148172225837,0.07394121900691841,0.22355003186743172,0.08516483516483508,0.08403361344537807,0.03106060606060601,0.1733870967741935,-0.09412780656303976,0.03688524590163933,-0.0034364261168384758,0.0602883355176933,0.02127659574468077,-0.10811195783776084
22,0.0141627417673309,-0.028614729075872924,-0.008498863970157755,-0.14507579616369215,0.03747104951155933,0.058628574720251514,0.2544789382873007,0.2544789382873007,0.2514619883040936,0.24852071005917153,-0.005586164677073735,-0.17332325187708508,8.072985435414084,-1.0066959614982214,-0.0004610192316295558,0.12097929417892939,0.9037974683544305,0.9250645994832041,0.03710506980161643,0.08591065292096212,0.015490943755958053,0.03952569169960474,0.0229208924949289,0.8751545117428925,0.02083333333333326,0.13622933801804682
21,0.051253934766910536,0.18429720912128267,0.06282718954928024,0.18657546730702834,0.03987785030916524,0.08926272258132317,0.1391500084454511,0.1391500084454511,-0.4299065420560748,-0.42654028436018954,0.13313961913423245,0.1754021277075739,-0.7984704043846019,-575.0180921052631,0.2647554371120209,0.047746282527880934,0.0352393617021276,0.04026845637583887,0.03931987247608926,0.009493670886075778,-0.47336306031448017,0.04562737642585546,-0.010906206623041759,0.02373104812129201,0.020408163265306145,-0.00189753320683117
20,0.036126305828191985,-0.020265730715922747,0.030175861967495,0.04177266036879046,0.0421044582548562,0.025439120830252904,0.06872912026726063,0.06872912026726063,0.06557377049180335,0.06611570247933884,-0.14688978525563434,0.25523920243918496,-0.06476770280178634,-2.252344535720323,-0.2621574220914916,0.19137376649295934,-0.017341040462427793,-0.014193548387096855,0.04021813224267201,0.14733542319749215,0.10828877005347581,0.04727272727272713,0.005813953488372103,-0.0025756600128782337,-0.020000000000000018,-0.05956907477820028
19,0.035986829070812076,0.03385812356010742,0.01126542616550541,-0.044873945826514716,0.06053905379740998,0.22233971318831314,0.5624170917374174,0.5624170917374174,0.5615384615384613,0.5581395348837208,0.20774278588320438,-0.11815226185712213,-0.17009170388672434,-1.5742875315737452,0.204045880956639,0.006328524895300003,0.21111111111111103,0.22382198952879584,0.05963302752293598,-0.032786885245901676,-0.012062726176115812,0.05902777777777768,0.023719354195734343,0.14912846998063256,0.08163265306122458,0.08243486073674755
18,0.007588327521936167,0.10876886189493917,0.01603719924664726,0.0016461728700529754,-0.0004128691937165252,-0.09243103995298729,-0.59715408773688,-0.59715408773688,-0.6009852216748768,-0.5970149253731343,-0.09674042326262411,-0.3151292039396538,0.197609675803335,1.414565446903448,0.40918883701460684,-0.14861740497549236,-0.0766324878575283,-0.07379679144385032,-0.0012368583797157662,-0.19491525423728817,-0.3268213268213269,0.05573770491803298,-0.007982866043613646,-0.09157303370786507,0.018867924528301883,0.10693781559106319
17,-0.0020203559063198817,-0.11496502690813049,0.01007917546548831,-0.08555840662256509,-0.013667346748204134,-0.5009063615798266,-1.3818096754748217,-1.3818096754748217,-1.382716049382716,-1.382716049382716,-0.5448589344960619,0.3050921264307953,-11.667638727874651,-0.933660909336906,0.01926300765662159,-0.019117966543558573,-0.2998246639392168,-0.2979214780600462,-0.014551083591331282,-0.01754385964912286,0.025997581620314403,0.04968944099378869,-0.011579980372914411,-0.20779220779220786,-0.12962962962962976,-0.032118977691682926
16,-0.023300686656527625,-0.22023136967576873,-0.04442602222418868,-0.2640505604326292,-0.0024758882087962952,0.06519755121546433,-1.031034238989561,-1.031034238989561,-1.032258064516129,-1.032258064516129,-0.07617951021657454,-0.4108485541136291,-1.655968370058662,-19.90324827140228,-0.3572516744468297,0.038205980066445155,-0.3430717863105175,-0.3388157894736842,-0.003141690229343297,0.0535714285714286,0.45374189746611693,0.050295857988165604,0.02124702144559154,-0.25761124121779855,-0.10638297872340419,0.05952611530763763
15,-0.19498377645961107,-0.24420247862465816,-0.1497144684952828,-0.10125655245631215,-0.2377323825690616,-0.12036801216017645,-774.6786256643887,-774.6786256643887,-748.0,-748.0,0.27503541351832883,0.5788138782268382,-0.8695642520311734,-0.17804437754597224,-0.45685847907883237,-0.16800000000000004,-3.9275730622617533,-3.890547263681592,-0.23826032146233844,-0.16610169491525428,0.25456019456830137,0.04788732394366213,-0.05308185883725436,0.0,-0.1428571428571429,-0.15903966851502038
14,-0.011071608509465758,-0.08237786190095575,0.002800323932839577,-0.11122537263777865,-0.025683700130598508,-0.17292494849081308,-0.9302467601580965,-0.9302467601580965,-0.9303882195448461,-0.9303882195448461,-0.4557224826591435,-0.5382847023267565,-2.836035092313736,-0.9612889903410564,-0.03256140861114143,0.0180769230769231,0.28515625,0.2676419965576591,-0.026065370293752665,0.33739837398373984,0.0,0.045698924731182755,-0.014784394250513477,0.0,-0.19444444444444442,0.03246141583943185
13,-0.023607608516905354,-0.08734980194765618,-0.007074723587711662,-0.14913259974924242,-0.04153175820045296,-0.2462275171823075,0.6594535273095647,0.6594535273095647,0.6538461538461537,0.6538461538461537,-0.5264942441942603,-0.2659919623982717,0.6122323810067181,1.0686019104329487,-0.06962363571076646,-0.1509885404860848,0.16312056737588665,0.1446028513238291,-0.042480883602378894,-0.1306990881458967,0.0,0.04370179948586106,-0.018340975406419324,0.0,-0.06896551724137923,0.07256649589444875
12,-0.019283045154222078,0.0356363903809771,-0.011418843194201389,0.10613176465724194,-0.02811554047692444,0.311139152463656,-0.37987943430780713,-0.37987943430780713,-0.38372093023255804,-0.38372093023255804,0.7255196490975373,-0.45077116212338597,-1.3973078420270366,-3.2237081459270365,0.1664086189435452,0.16093147433995836,0.17421602787456436,0.14234875444839856,-0.028393966282165062,0.21328671328671334,0.0,0.039408866995073843,-0.008917197452229408,0.0,0.0,-0.0637309428777072
11,-0.010670199745742792,0.11739950802429755,-0.001250777107352108,0.012090446491510365,-0.021431152684303956,0.19302600605944553,-0.350556129041079,-0.350556129041079,-0.339622641509434,-0.339622641509434,0.5096631991509424,0.2244385754301721,0.2033690726699846,1.4182181030375491,0.34500116708262696,0.11945828542225634,-0.7509891196834817,-0.7544132917964693,-0.06529680365296808,0.1527377521613833,0.0,0.04028436018957349,-0.010925449871465265,0.0,0.0,0.10406038157802788
10,0.1527890459923551,0.2983599024605481,0.1251211690322811,0.16984090254667872,0.1850492680647875,0.13383736825609005,-0.2507789473684211,-0.2507789473684211,-0.2857142857142857,-0.2857142857142857,0.05945909652821757,-1.02788874828751,1.5062775829686443,1.048913588966748,0.5255590825829792,0.13170509016206333,-0.1330685203574975,-0.13530655391120516,0.18417195896433802,0.20999999999999996,0.0,0.03872437357630987,0.027940220922677117,0.0,0.07407407407407396,0.10988732750981134
9,-0.008399991948249697,-0.04516031748130522,-0.012541081281821298,0.002326257059297454,-0.0038157344294611484,0.08681207923768097,-1.200327357536248,-1.200327357536248,-1.2,-1.2,0.1159423171315137,-79.41258085684822,-0.5769511897993991,-1.0967563428936369,-0.033332812465818096,0.006958450988301612,-0.47193585337915234,-0.4694376528117359,-0.004537953795379468,-0.14876033057851235,0.0,0.037280701754386136,0.004635482511588629,0.0,0.10344827586206917,-0.047393635222995445
8,0.001767870942237515,-0.0031534355742180997,0.005113865104902748,0.339687314069292,-0.0019037593503439254,0.0007304932074090331,-0.1916050075393625,-0.1916050075393625,-0.20000000000000007,-0.20000000000000007,0.2007986201198375,0.05528396381274159,-0.1822981203860451,-2.9291004894147648,0.06651963123461924,-0.06659989984977455,-0.544468546637744,-0.543778801843318,-0.002486531288852012,-0.06310679611650494,0.0,0.03594080338266381,-0.0035654362416106533,0.0,0.0625,-0.25588217685445735
7,-0.015661495296360628,-0.18307470089759537,-0.031171986385539974,-0.19918420544152016,0.0014781629460824952,0.01239132897883688,3.3612978788010235,3.3612978788010235,3.25,3.25,-0.10850853505641822,0.17415494840642243,6.738472045845028,-8.808402266784608,-0.48701591991963344,-0.03240343347639485,-1.0333333333333334,-1.0303030303030303,0.0004154549231407678,-0.02849740932642486,0.0,0.03265306122448974,0.01725952431067146,-0.9894847528916929,0.02941176470588225,0.020114248933944978
6,0.035679990196250344,0.1863791230200984,-0.08958088605682135,0.2502348597997086,0.1695851335673566,0.263000388680769,23.173899205299332,23.173899205299332,23.823529411764703,23.705882352941178,0.3809019069799857,0.18867047025778927,-0.8589848431150012,-0.9851737509414232,-0.014075718145267091,0.13406520292747826,253.28571428571428,293.0,0.16860465116279078,0.1333333333333333,329.4361873990307,0.03359683794466428,0.12931926339747557,229.39999999999998,0.08571428571428585,-0.051108131556116376
5,0.03041721005120568,0.09331470631647387,0.02583601756630438,0.04080509491323192,0.034229359171218166,0.10199946773463009,-0.7372567752383492,-0.7372567752383492,-0.7369668246445498,-0.7380952380952381,0.1691976485972635,0.18223674330823703,0.11447627057316367,0.5225860621326617,-0.021737462660088136,0.053779211890094825,0.1769662921348314,0.21995464852607705,0.033759772565742585,-0.09882352941176464,-0.997637625892246,0.03632887189292533,0.003664345914254241,0.12847222222222232,0.07894736842105265,0.05045299642589973
4,0.043976586340431334,0.1804009765984016,0.0532456471920113,0.5148634462298158,0.03632611565392496,0.1512878270502629,0.09104760651999966,0.09104760651999966,0.09009009009009006,0.09090909090909083,0.25090808586195035,0.12136825257977235,-0.000991549888999077,-11.594518583875592,0.2354152830433749,0.05233367356407159,0.1446300715990454,0.18308550185873607,0.0357511172224132,0.018276762402088753,-0.14817880794701999,0.03321033210332103,-0.007301935012778427,0.06961538461538463,0.12195121951219523,-0.22076277892071527
3,0.04815336226231892,0.13829406132350575,0.031371614699631456,0.029750301410117697,0.06223077475789274,0.12825321484248642,0.7093426300824852,0.7093426300824852,0.7024793388429753,0.7083333333333333,0.12771828841630462,0.09518727448289876,0.18328502415458936,0.38411209602281904,0.2637502913565064,0.08147429679922413,0.19641367806505405,0.23330714846818545,0.06106870229007644,0.04358974358974366,-0.10641399416909614,0.03928571428571437,0.013424052960647526,0.11111111111111094,0.10869565217391308,0.10540211210398054
2,0.00882158062005134,0.04988445310988454,-0.035033491031948194,-0.15745985387604078,0.04454078464943434,-0.0433091351390239,-0.2503744903237074,-0.2503744903237074,-0.24757281553398058,-0.24878048780487794,-0.04766584901239812,-0.27772677717831884,2.537586199217619,0.058608513182684785,0.22093629231508194,-0.12123929881777418,-0.3398396653886371,-0.3318471337579618,0.04410384735689732,-0.17199017199017197,-0.31430125067971726,0.03780068728522323,0.035383777898747804,-0.35954692556634305,0.03921568627450989,0.2460959029946721
1,0.050952933586063454,-0.029561690911715344,0.081635460004011,0.15366096228801696,0.027866337591847312,-0.11277515358934764,-0.2882518190616151,-0.2882518190616151,-0.29032258064516125,-0.2857142857142857,-0.22897208362826516,0.4637470256847698,-0.7134101176524897,-2.491371286882509,-0.2698732478205028,-0.13453330859157542,-0.04118268215417109,-0.03717826501429922,0.027561414020371267,-0.17210682492581608,0.25614591593973035,0.0364238410596025,-0.02190676480897291,-0.022233451237998914,-0.018867924528301883,-0.1588647253962403
0,0.002466553021174045,-0.08402071360677765,-0.04051545780773769,0.026222267480194184,0.036499518157264266,0.15743886748326164,0.33428754882551237,0.33428754882551237,0.3363636363636362,0.32727272727272716,0.6709757434059247,-0.13661088330761506,6.53497924308652,-1.0587746293684972,0.02172458421743073,0.009326758147512937,0.0016519823788545551,0.016831683168316847,0.035860058309038045,-0.017921146953404965,0.008838383838383868,0.0463258785942493,0.0338648987636625,0.017571059431524372,0.0,-0.1073619631901841
